178,13	1234,93
178,35	1234,93
178,57	1234,93
178,78	1279,98
179,00	1187,82
179,22	1480,68
179,44	1472,49
179,66	1413,10
179,87	1538,02
180,09	1456,11
180,31	1507,30
180,53	1476,59
180,75	1374,19
180,96	1374,19
181,18	1466,35
181,40	1316,84
181,62	1392,62
181,84	1488,87
182,05	1480,68
182,27	1411,05
182,49	1497,07
182,71	1378,28
182,92	1482,73
183,14	1482,73
183,36	1433,58
183,58	1478,63
183,80	1595,37
184,01	1456,11
184,23	1449,96
184,45	1497,07
184,67	1419,24
184,89	1447,91
185,10	1505,26
185,32	1497,07
185,54	1423,34
185,76	1406,95
185,97	1456,11
186,19	1488,87
186,41	1525,74
186,63	1497,07
186,84	1396,71
187,06	1431,53
187,28	1578,98
187,50	1433,58
187,72	1546,22
187,93	1488,87
188,15	1423,34
188,37	1468,39
188,59	1456,11
188,80	1529,83
189,02	1392,62
189,24	1443,82
189,46	1523,69
189,67	1597,42
189,89	1464,30
190,11	1384,43
190,33	1529,83
190,54	1488,87
190,76	1406,95
190,98	1480,68
191,20	1423,34
191,41	1427,43
191,63	1558,50
191,85	1447,91
192,07	1472,49
192,28	1406,95
192,50	1488,87
192,72	1447,91
192,94	1535,98
193,15	1392,62
193,37	1521,64
193,59	1562,60
193,81	1521,64
194,02	1406,95
194,24	1423,34
194,46	1462,25
194,67	1509,35
194,89	1390,57
195,11	1474,54
195,33	1472,49
195,54	1521,64
195,76	1406,95
195,98	1376,24
196,20	1464,30
196,41	1472,49
196,63	1464,30
196,85	1472,49
197,06	1472,49
197,28	1456,11
197,50	1423,34
197,72	1472,49
197,93	1452,01
198,15	1540,07
198,37	1447,91
198,58	1394,67
198,80	1425,39
199,02	1464,30
199,24	1357,80
199,45	1548,26
199,67	1400,81
199,89	1513,45
200,10	1390,57
200,32	1390,57
200,54	1439,72
200,76	1423,34
200,97	1490,92
201,19	1351,66
201,41	1417,19
201,62	1417,19
201,84	1501,16
202,06	1472,49
202,28	1366,00
202,49	1458,15
202,71	1572,84
202,93	1497,07
203,14	1374,19
203,36	1533,93
203,58	1447,91
203,79	1468,39
204,01	1499,11
204,23	1558,50
204,44	1562,60
204,66	1449,96
204,88	1521,64
205,10	1472,49
205,31	1439,72
205,53	1406,95
205,75	1554,41
205,96	1464,30
206,18	1415,15
206,40	1382,38
206,61	1316,84
206,83	1394,67
207,05	1382,38
207,26	1431,53
207,48	1411,05
207,70	1466,35
207,91	1476,59
208,13	1456,11
208,35	1497,07
208,56	1366,00
208,78	1464,30
209,00	1492,97
209,21	1464,30
209,43	1505,26
209,65	1472,49
209,86	1488,87
210,08	1460,20
210,30	1472,49
210,51	1427,43
210,73	1501,16
210,95	1415,15
211,16	1431,53
211,38	1460,20
211,60	1431,53
211,81	1398,76
212,03	1435,63
212,25	1505,26
212,46	1533,93
212,68	1458,15
212,90	1472,49
213,11	1394,67
213,33	1529,83
213,55	1423,34
213,76	1423,34
213,98	1460,20
214,20	1441,77
214,41	1439,72
214,63	1517,54
214,84	1462,25
215,06	1423,34
215,28	1492,97
215,49	1564,65
215,71	1480,68
215,93	1538,02
216,14	1406,95
216,36	1474,54
216,58	1460,20
216,79	1441,77
217,01	1527,78
217,22	1513,45
217,44	1529,83
217,66	1474,54
217,87	1554,41
218,09	1384,43
218,31	1406,95
218,52	1468,39
218,74	1460,20
218,95	1460,20
219,17	1392,62
219,39	1449,96
219,60	1515,50
219,82	1484,78
220,04	1499,11
220,25	1468,39
220,47	1466,35
220,68	1423,34
220,90	1458,15
221,12	1488,87
221,33	1415,15
221,55	1488,87
221,77	1488,87
221,98	1492,97
222,20	1447,91
222,41	1499,11
222,63	1443,82
222,85	1529,83
223,06	1427,43
223,28	1366,00
223,49	1474,54
223,71	1480,68
223,93	1425,39
224,14	1521,64
224,36	1468,39
224,57	1521,64
224,79	1472,49
225,01	1443,82
225,22	1472,49
225,44	1384,43
225,65	1402,86
225,87	1505,26
226,09	1503,21
226,30	1515,50
226,52	1488,87
226,73	1333,23
226,95	1556,46
227,17	1439,72
227,38	1384,43
227,60	1521,64
227,81	1400,81
228,03	1427,43
228,24	1548,26
228,46	1521,64
228,68	1392,62
228,89	1464,30
229,11	1406,95
229,32	1486,83
229,54	1423,34
229,75	1472,49
229,97	1409,00
230,19	1431,53
230,40	1415,15
230,62	1425,39
230,83	1476,59
231,05	1517,54
231,26	1427,43
231,48	1505,26
231,70	1476,59
231,91	1415,15
232,13	1497,07
232,34	1538,02
232,56	1411,05
232,77	1406,95
232,99	1449,96
233,21	1660,90
233,42	1406,95
233,64	1474,54
233,85	1435,63
234,07	1427,43
234,28	1507,30
234,50	1419,24
234,71	1411,05
234,93	1480,68
235,15	1402,86
235,36	1357,80
235,58	1423,34
235,79	1366,00
236,01	1492,97
236,22	1490,92
236,44	1538,02
236,65	1458,15
236,87	1562,60
237,08	1441,77
237,30	1368,04
237,52	1466,35
237,73	1415,15
237,95	1433,58
238,16	1431,53
238,38	1515,50
238,59	1452,01
238,81	1488,87
239,02	1570,79
239,24	1466,35
239,45	1433,58
239,67	1406,95
239,88	1447,91
240,10	1538,02
240,31	1402,86
240,53	1460,20
240,74	1521,64
240,96	1540,07
241,18	1480,68
241,39	1492,97
241,61	1398,76
241,82	1374,19
242,04	1435,63
242,25	1435,63
242,47	1480,68
242,68	1529,83
242,90	1402,86
243,11	1398,76
243,33	1472,49
243,54	1556,46
243,76	1374,19
243,97	1501,16
244,19	1505,26
244,40	1488,87
244,62	1435,63
244,83	1400,81
245,05	1398,76
245,26	1456,11
245,48	1447,91
245,69	1525,74
245,91	1488,87
246,12	1427,43
246,34	1495,02
246,55	1417,19
246,77	1333,23
246,98	1406,95
247,20	1423,34
247,41	1441,77
247,63	1406,95
247,84	1415,15
248,06	1554,41
248,27	1427,43
248,49	1488,87
248,70	1435,63
248,92	1384,43
249,13	1382,38
249,35	1464,30
249,56	1382,38
249,78	1366,00
249,99	1425,39
250,21	1460,20
250,42	1472,49
250,64	1525,74
250,85	1476,59
251,06	1409,00
251,28	1390,57
251,49	1409,00
251,71	1456,11
251,92	1398,76
252,14	1390,57
252,35	1423,34
252,57	1415,15
252,78	1521,64
253,00	1456,11
253,21	1329,13
253,43	1505,26
253,64	1501,16
253,86	1431,53
254,07	1447,91
254,28	1415,15
254,50	1406,95
254,71	1488,87
254,93	1452,01
255,14	1378,28
255,36	1425,39
255,57	1431,53
255,79	1452,01
256,00	1423,34
256,22	1484,78
256,43	1525,74
256,64	1472,49
256,86	1540,07
257,07	1431,53
257,29	1464,30
257,50	1427,43
257,72	1480,68
257,93	1427,43
258,15	1505,26
258,36	1392,62
258,57	1566,70
258,79	1501,16
259,00	1447,91
259,22	1406,95
259,43	1476,59
259,65	1382,38
259,86	1443,82
260,08	1398,76
260,29	1619,94
260,50	1425,39
260,72	1808,36
260,93	1447,91
261,15	1472,49
261,36	1480,68
261,58	1415,15
261,79	1417,19
262,00	1488,87
262,22	1576,94
262,43	1497,07
262,65	1409,00
262,86	1464,30
263,07	1488,87
263,29	1531,88
263,50	1544,17
263,72	1488,87
263,93	1509,35
264,15	1398,76
264,36	1443,82
264,57	1349,61
264,79	1517,54
265,00	1439,72
265,22	1433,58
265,43	1433,58
265,64	1406,95
265,86	1427,43
266,07	1472,49
266,29	1488,87
266,50	1425,39
266,71	1480,68
266,93	1431,53
267,14	1488,87
267,36	1409,00
267,57	1499,11
267,78	1419,24
268,00	1531,88
268,21	1513,45
268,43	1472,49
268,64	1472,49
268,85	1378,28
269,07	1490,92
269,28	1398,76
269,50	1406,95
269,71	1447,91
269,92	1513,45
270,14	1472,49
270,35	1325,04
270,56	1492,97
270,78	1466,35
270,99	1376,24
271,21	1398,76
271,42	1456,11
271,63	1515,50
271,85	1474,54
272,06	1441,77
272,27	1406,95
272,49	1480,68
272,70	1449,96
272,92	1488,87
273,13	1415,15
273,34	1415,15
273,56	1497,07
273,77	1464,30
273,98	1439,72
274,20	1472,49
274,41	1425,39
274,63	1423,34
274,84	1423,34
275,05	1490,92
275,27	1415,15
275,48	1384,43
275,69	1521,64
275,91	1425,39
276,12	1521,64
276,33	1439,72
276,55	1409,00
276,76	1406,95
276,97	1589,22
277,19	1417,19
277,40	1488,87
277,61	1435,63
277,83	1439,72
278,04	1478,63
278,26	1490,92
278,47	1474,54
278,68	1572,84
278,90	1406,95
279,11	1390,57
279,32	1472,49
279,54	1517,54
279,75	1507,30
279,96	1497,07
280,18	1507,30
280,39	1595,37
280,60	1400,81
280,82	1499,11
281,03	1402,86
281,24	1578,98
281,46	1519,59
281,67	1482,73
281,88	1447,91
282,10	1480,68
282,31	1480,68
282,52	1505,26
282,74	1392,62
282,95	1546,22
283,16	1382,38
283,37	1447,91
283,59	1497,07
283,80	1460,20
284,01	1581,03
284,23	1351,66
284,44	1529,83
284,65	1603,56
284,87	1400,81
285,08	1521,64
285,29	1466,35
285,51	1478,63
285,72	1447,91
285,93	1554,41
286,15	1427,43
286,36	1406,95
286,57	1431,53
286,78	1423,34
287,00	1476,59
287,21	1497,07
287,42	1456,11
287,64	1464,30
287,85	1509,35
288,06	1488,87
288,28	1447,91
288,49	1351,66
288,70	1452,01
288,91	1382,38
289,13	1486,83
289,34	1521,64
289,55	1449,96
289,77	1406,95
289,98	1556,46
290,19	1497,07
290,40	1437,67
290,62	1464,30
290,83	1458,15
291,04	1423,34
291,26	1411,05
291,47	1433,58
291,68	1435,63
291,89	1398,76
292,11	1562,60
292,32	1480,68
292,53	1595,37
292,74	1466,35
292,96	1398,76
293,17	1464,30
293,38	1468,39
293,60	1472,49
293,81	1456,11
294,02	1464,30
294,23	1447,91
294,45	1497,07
294,66	1550,31
294,87	1480,68
295,08	1423,34
295,30	1562,60
295,51	1505,26
295,72	1521,64
295,93	1417,19
296,15	1464,30
296,36	1480,68
296,57	1538,02
296,78	1497,07
297,00	1417,19
297,21	1474,54
297,42	1632,23
297,63	1460,20
297,85	1513,45
298,06	1482,73
298,27	1464,30
298,48	1411,05
298,70	1431,53
298,91	1540,07
299,12	1521,64
299,33	1439,72
299,55	1441,77
299,76	1333,23
299,97	1466,35
300,18	1343,47
300,40	1398,76
300,61	1423,34
300,82	1435,63
301,03	1460,20
301,24	1386,47
301,46	1482,73
301,67	1548,26
301,88	1447,91
302,09	1574,89
302,31	1466,35
302,52	1554,41
302,73	1632,23
302,94	1564,65
303,15	1441,77
303,37	1349,61
303,58	1472,49
303,79	1538,02
304,00	1538,02
304,22	1507,30
304,43	1501,16
304,64	1449,96
304,85	1474,54
305,06	1409,00
305,28	1431,53
305,49	1488,87
305,70	1521,64
305,91	1458,15
306,12	1482,73
306,34	1435,63
306,55	1482,73
306,76	1474,54
306,97	1578,98
307,18	1398,76
307,40	1439,72
307,61	1474,54
307,82	1490,92
308,03	1501,16
308,24	1437,67
308,46	1492,97
308,67	1484,78
308,88	1427,43
309,09	1474,54
309,30	1529,83
309,52	1431,53
309,73	1488,87
309,94	1349,61
310,15	1447,91
310,36	1517,54
310,57	1458,15
310,79	1482,73
311,00	1488,87
311,21	1357,80
311,42	1546,22
311,63	1566,70
311,85	1597,42
312,06	1603,56
312,27	1763,30
312,48	2000,87
312,69	2166,75
312,90	2594,78
313,12	2742,23
313,33	2711,51
313,54	2736,09
313,75	2373,60
313,96	2144,22
314,17	1918,95
314,39	1597,42
314,60	1570,79
314,81	1538,02
315,02	1417,19
315,23	1415,15
315,44	1513,45
315,65	1513,45
315,87	1488,87
316,08	1515,50
316,29	1439,72
316,50	1439,72
316,71	1492,97
316,92	1390,57
317,14	1409,00
317,35	1409,00
317,56	1452,01
317,77	1513,45
317,98	1513,45
318,19	1431,53
318,40	1447,91
318,62	1490,92
318,83	1456,11
319,04	1556,46
319,25	1368,04
319,46	1613,80
319,67	1464,30
319,88	1497,07
320,09	1515,50
320,31	1472,49
320,52	1476,59
320,73	1488,87
320,94	1476,59
321,15	1431,53
321,36	1490,92
321,57	1490,92
321,78	1427,43
322,00	1472,49
322,21	1415,15
322,42	1439,72
322,63	1542,12
322,84	1499,11
323,05	1497,07
323,26	1366,00
323,47	1509,35
323,69	1472,49
323,90	1472,49
324,11	1318,89
324,32	1439,72
324,53	1431,53
324,74	1415,15
324,95	1488,87
325,16	1472,49
325,37	1439,72
325,59	1402,86
325,80	1611,75
326,01	1398,76
326,22	1505,26
326,43	1531,88
326,64	1505,26
326,85	1470,44
327,06	1406,95
327,27	1425,39
327,48	1490,92
327,69	1513,45
327,91	1464,30
328,12	1456,11
328,33	1361,90
328,54	1433,58
328,75	1587,18
328,96	1431,53
329,17	1472,49
329,38	1570,79
329,59	1423,34
329,80	1824,74
330,01	1525,74
330,23	1447,91
330,44	1456,11
330,65	1374,19
330,86	1429,48
331,07	1456,11
331,28	1472,49
331,49	1439,72
331,70	1472,49
331,91	1435,63
332,12	1466,35
332,33	1490,92
332,54	1513,45
332,75	1464,30
332,96	1423,34
333,17	1431,53
333,39	1562,60
333,60	1497,07
333,81	1644,52
334,02	1581,03
334,23	1595,37
334,44	1697,77
334,65	1665,00
334,86	1669,09
335,07	1644,52
335,28	1529,83
335,49	1484,78
335,70	1411,05
335,91	1474,54
336,12	1497,07
336,33	1546,22
336,54	1382,38
336,75	1538,02
336,96	1492,97
337,17	1499,11
337,39	1398,76
337,60	1497,07
337,81	1499,11
338,02	1439,72
338,23	1505,26
338,44	1370,09
338,65	1443,82
338,86	1509,35
339,07	1505,26
339,28	1443,82
339,49	1456,11
339,70	1529,83
339,91	1495,02
340,12	1538,02
340,33	1488,87
340,54	1521,64
340,75	1480,68
340,96	1472,49
341,17	1521,64
341,38	1443,82
341,59	1472,49
341,80	1538,02
342,01	1484,78
342,22	1417,19
342,43	1433,58
342,64	1488,87
342,85	1474,54
343,06	1521,64
343,27	1437,67
343,48	1499,11
343,69	1466,35
343,90	1439,72
344,11	1443,82
344,32	1554,41
344,53	1464,30
344,74	1472,49
344,95	1525,74
345,16	1492,97
345,37	1433,58
345,58	1472,49
345,79	1423,34
346,00	1531,88
346,21	1382,38
346,42	1497,07
346,63	1460,20
346,84	1501,16
347,05	1431,53
347,26	1425,39
347,47	1382,38
347,68	1488,87
347,89	1472,49
348,10	1497,07
348,31	1497,07
348,52	1439,72
348,73	1517,54
348,94	1404,91
349,15	1546,22
349,36	1515,50
349,57	1409,00
349,78	1499,11
349,99	1447,91
350,20	1527,78
350,41	1415,15
350,62	1406,95
350,83	1482,73
351,04	1357,80
351,25	1490,92
351,46	1402,86
351,67	1449,96
351,88	1433,58
352,09	1368,04
352,30	1449,96
352,50	1501,16
352,71	1435,63
352,92	1480,68
353,13	1521,64
353,34	1447,91
353,55	1490,92
353,76	1466,35
353,97	1505,26
354,18	1460,20
354,39	1513,45
354,60	1497,07
354,81	1548,26
355,02	1507,30
355,23	1521,64
355,44	1433,58
355,65	1435,63
355,86	1449,96
356,07	1472,49
356,28	1566,70
356,48	1572,84
356,69	1402,86
356,90	1482,73
357,11	1472,49
357,32	1449,96
357,53	1523,69
357,74	1488,87
357,95	1533,93
358,16	1542,12
358,37	1525,74
358,58	1572,84
358,79	1505,26
359,00	1505,26
359,21	1515,50
359,41	1636,33
359,62	1540,07
359,83	1583,08
360,04	1472,49
360,25	1488,87
360,46	1513,45
360,67	1488,87
360,88	1456,11
361,09	1583,08
361,30	1515,50
361,51	1581,03
361,72	1482,73
361,92	1636,33
362,13	1456,11
362,34	1513,45
362,55	1490,92
362,76	1505,26
362,97	1529,83
363,18	1566,70
363,39	1603,56
363,60	1581,03
363,81	1566,70
364,01	1824,74
364,22	1933,28
364,43	2527,19
364,64	3588,04
364,85	5234,61
365,06	6709,15
365,27	7800,71
365,48	8140,68
365,69	7198,61
365,89	6094,76
366,10	4923,32
366,31	4143,04
366,52	3569,61
366,73	3063,76
366,94	2785,24
367,15	2250,72
367,36	2033,63
367,57	1902,56
367,77	1791,97
367,98	1777,64
368,19	1669,09
368,40	1554,41
368,61	1652,71
368,82	1535,98
369,03	1488,87
369,23	1761,25
369,44	1533,93
369,65	1505,26
369,86	1576,94
370,07	1499,11
370,28	1644,52
370,49	1538,02
370,70	1636,33
370,90	1550,31
371,11	1497,07
371,32	1636,33
371,53	1638,38
371,74	1603,56
371,95	1517,54
372,16	1554,41
372,36	1587,18
372,57	1542,12
372,78	1566,70
372,99	1570,79
373,20	1583,08
373,41	1546,22
373,61	1538,02
373,82	1644,52
374,03	1554,41
374,24	1607,66
374,45	1695,72
374,66	1558,50
374,86	1673,19
375,07	1677,29
375,28	1636,33
375,49	1570,79
375,70	1611,75
375,91	1613,80
376,11	1583,08
376,32	1533,93
376,53	1619,94
376,74	1701,86
376,95	2054,11
377,16	1644,52
377,36	1636,33
377,57	1679,33
377,78	1693,67
377,99	1632,23
378,20	1718,25
378,40	1611,75
378,61	1685,48
378,82	1669,09
379,03	1595,37
379,24	1710,05
379,45	1578,98
379,65	1615,85
379,86	1693,67
380,07	1652,71
380,28	1595,37
380,49	1630,18
380,69	1736,68
380,90	1794,02
381,11	1708,01
381,32	1611,75
381,53	1734,63
381,73	1685,48
381,94	1677,29
382,15	1681,38
382,36	1742,82
382,57	1787,88
382,77	1701,86
382,98	1619,94
383,19	1669,09
383,40	1800,16
383,60	1769,44
383,81	1685,48
384,02	1761,25
384,23	1796,07
384,44	1636,33
384,64	1677,29
384,85	1736,68
385,06	1712,10
385,27	1695,72
385,48	1726,44
385,68	1728,49
385,89	1710,05
386,10	1722,34
386,31	1759,21
386,51	1712,10
386,72	1791,97
386,93	1728,49
387,14	1794,02
387,34	1775,59
387,55	1687,53
387,76	1787,88
387,97	1810,40
388,17	1771,49
388,38	1759,21
388,59	1824,74
388,80	1843,17
389,01	1787,88
389,21	1808,36
389,42	1818,60
389,63	1869,80
389,84	1775,59
390,04	1865,70
390,25	1882,08
390,46	1894,37
390,67	1873,89
390,87	1890,28
391,08	1890,28
391,29	1767,40
391,49	1845,22
391,70	1808,36
391,91	1845,22
392,12	1826,79
392,32	1753,06
392,53	1832,93
392,74	1791,97
392,95	1783,78
393,15	1906,66
393,36	1869,80
393,57	1875,94
393,78	1794,02
393,98	1873,89
394,19	1916,90
394,40	1964,00
394,60	1906,66
394,81	1832,93
395,02	1824,74
395,23	1832,93
395,43	1861,60
395,64	1947,62
395,85	1820,64
396,06	1851,36
396,26	1937,38
396,47	1906,66
396,68	1845,22
396,88	2050,02
397,09	1861,60
397,30	1873,89
397,50	1859,56
397,71	1972,19
397,92	1951,71
398,13	1957,86
398,33	1759,21
398,54	1996,77
398,75	1916,90
398,95	2074,59
399,16	1996,77
399,37	1998,82
399,57	2056,16
399,78	2050,02
399,99	2037,73
400,20	2070,50
400,40	1951,71
400,61	1923,04
400,82	1951,71
401,02	1988,58
401,23	1941,47
401,44	1990,63
401,64	2031,58
401,85	2025,44
402,06	2017,25
402,26	2054,11
402,47	1988,58
402,68	2193,37
402,88	1947,62
403,09	1998,82
403,30	2017,25
403,50	2045,92
403,71	2334,68
403,92	2654,17
404,12	4114,37
404,33	6408,09
404,54	9262,96
404,74	11181,91
404,95	12607,30
405,16	11550,54
405,36	9271,15
405,57	7567,24
405,78	5805,99
405,98	4577,21
406,19	3590,09
406,40	2957,27
406,60	2652,12
406,81	2254,81
407,02	2197,47
407,22	2365,40
407,43	2439,13
407,64	2654,17
407,84	2889,68
408,05	3016,66
408,26	2932,69
408,46	2766,81
408,67	2652,12
408,87	2414,56
409,08	2275,29
409,29	2217,95
409,49	2136,03
409,70	2144,22
409,91	2152,42
410,11	2093,02
410,32	2156,51
410,53	2039,78
410,73	2013,15
410,94	2187,23
411,14	2099,17
411,35	2136,03
411,56	2181,09
411,76	2168,80
411,97	2220,00
412,18	2185,18
412,38	2133,98
412,59	2246,62
412,79	2004,96
413,00	2258,91
413,21	2070,50
413,41	2193,37
413,62	2228,19
413,82	2176,99
414,03	2201,57
414,24	2217,95
414,44	2236,38
414,65	2250,72
414,86	2222,05
415,06	2250,72
415,27	2154,46
415,47	2332,64
415,68	2162,66
415,89	2271,20
416,09	2228,19
416,30	2205,66
416,50	2201,57
416,71	2359,26
416,92	2258,91
417,12	2351,07
417,33	2222,05
417,53	2312,16
417,74	2267,10
417,94	2381,79
418,15	2416,60
418,36	2369,50
418,56	2250,72
418,77	2381,79
418,97	2293,72
419,18	2430,94
419,39	2373,60
419,59	2389,98
419,80	2316,25
420,00	2310,11
420,21	2246,62
420,41	2430,94
420,62	2408,41
420,83	2377,69
421,03	2410,46
421,24	2531,29
421,44	2430,94
421,65	2465,75
421,85	2389,98
422,06	2443,23
422,27	2562,01
422,47	2463,71
422,68	2475,99
422,88	2412,51
423,09	2447,32
423,29	2613,21
423,50	2553,82
423,70	2488,28
423,91	2430,94
424,12	2564,06
424,32	2516,95
424,53	2580,44
424,73	2586,58
424,94	2686,94
425,14	2498,52
425,35	2570,20
425,55	2602,97
425,76	2693,08
425,96	2602,97
426,17	2596,82
426,37	2586,58
426,58	2662,36
426,79	2598,87
426,99	2686,94
427,20	2668,50
427,40	2738,13
427,61	2688,98
427,81	2713,56
428,02	2619,35
428,22	2727,89
428,43	2760,66
428,63	2688,98
428,84	2758,61
429,04	2637,78
429,25	2783,19
429,45	2795,48
429,66	2959,31
429,86	2775,00
430,07	2799,57
430,27	2951,12
430,48	2938,84
430,68	2906,07
430,89	2918,36
431,09	2842,58
431,30	2881,49
431,50	2949,08
431,71	2955,22
431,91	2975,70
432,12	2893,78
432,32	3012,56
432,53	2930,64
432,73	2969,55
432,94	2992,08
433,14	3004,37
433,35	3102,67
433,55	3086,29
433,76	3094,48
433,96	3209,17
434,17	3454,92
434,37	3512,27
434,58	3622,86
434,78	3971,01
434,99	5539,76
435,19	11163,48
435,40	21821,11
435,60	35868,12
435,81	49194,26
436,01	59266,17
436,22	58403,97
436,42	48626,97
436,63	38264,25
436,83	30553,65
437,04	23275,16
437,24	16852,73
437,45	11769,68
437,65	7870,34
437,86	5769,13
438,06	4446,14
438,26	3966,92
438,47	3651,53
438,67	3473,36
438,88	3266,51
439,08	3225,55
439,29	3274,70
439,49	3319,76
439,70	3373,00
439,90	3258,32
440,11	3295,18
440,31	3282,89
440,52	3006,42
440,72	3274,70
440,92	3137,49
441,13	3248,08
441,33	3209,17
441,54	3299,28
441,74	3221,45
441,95	3151,82
442,15	3340,24
442,36	3186,64
442,56	3192,78
442,76	3219,41
442,97	3184,59
443,17	3112,91
443,38	3233,74
443,58	3082,19
443,79	3037,14
443,99	3178,45
444,19	3307,47
444,40	3155,92
444,60	3039,19
444,81	3170,26
445,01	3160,02
445,22	3061,71
445,42	3055,57
445,62	3176,40
445,83	3139,54
446,03	3211,22
446,24	3237,84
446,44	3307,47
446,64	3098,58
446,85	3082,19
447,05	3213,26
447,26	3170,26
447,46	3211,22
447,67	3180,50
447,87	3104,72
448,07	3172,30
448,28	3176,40
448,48	3200,98
448,69	3080,14
448,89	3135,44
449,09	3166,16
449,30	3096,53
449,50	3209,17
449,71	3184,59
449,91	3266,51
450,11	3102,67
450,32	3147,73
450,52	3086,29
450,72	3217,36
450,93	3246,03
451,13	3137,49
451,34	3291,09
451,54	3186,64
451,74	3194,83
451,95	3258,32
452,15	3188,69
452,36	3106,77
452,56	3160,02
452,76	3211,22
452,97	3194,83
453,17	3219,41
453,37	3194,83
453,58	3200,98
453,78	3233,74
453,98	3252,17
454,19	3196,88
454,39	3135,44
454,60	3180,50
454,80	3184,59
455,00	3276,75
455,21	3112,91
455,41	3321,81
455,61	3192,78
455,82	3162,06
456,02	3119,06
456,22	3151,82
456,43	3225,55
456,63	3352,52
456,84	3315,66
457,04	3399,63
457,24	3184,59
457,45	3377,10
457,65	3356,62
457,85	3350,48
458,06	3258,32
458,26	3145,68
458,46	3385,29
458,67	3434,44
458,87	3385,29
459,07	3317,71
459,28	3405,77
459,48	3325,90
459,68	3291,09
459,89	3340,24
460,09	3393,48
460,29	3463,12
460,50	3184,59
460,70	3381,20
460,90	3430,35
461,11	3352,52
461,31	3438,54
461,51	3467,21
461,72	3520,46
461,92	3526,60
462,12	3489,74
462,32	3475,40
462,53	3579,85
462,73	3940,29
462,93	3514,31
463,14	3563,47
463,34	3463,12
463,54	3545,03
463,75	3522,51
463,95	3528,65
464,15	3659,72
464,36	3704,78
464,56	3659,72
464,76	3717,06
464,96	3667,91
465,17	3704,78
465,37	3594,19
465,57	3725,26
465,78	3841,99
465,98	3704,78
466,18	3686,34
466,39	3725,26
466,59	3889,09
466,79	3848,13
466,99	3901,38
467,20	3868,61
467,40	3844,04
467,60	3831,75
467,81	3891,14
468,01	4038,59
468,21	3891,14
468,41	3971,01
468,62	3987,40
468,82	3995,59
469,02	4048,83
469,22	4114,37
469,43	3921,86
469,63	4083,65
469,83	4308,93
470,04	4233,15
470,24	4046,79
470,44	4304,83
470,64	4437,95
470,85	4235,20
471,05	4186,05
471,25	4241,34
471,45	4257,73
471,66	4382,65
471,86	4409,28
472,06	4587,45
472,26	4511,68
472,47	4415,42
472,67	4667,32
472,87	4612,03
473,07	4577,21
473,28	4425,66
473,48	4585,40
473,68	4571,07
473,88	4683,70
474,09	4585,40
474,29	4773,82
474,49	4650,94
474,69	4816,82
474,90	4814,77
475,10	4765,62
475,30	4954,04
475,50	4777,91
475,70	4880,31
475,91	4882,36
476,11	4833,21
476,31	5025,72
476,51	4984,76
476,72	5005,24
476,92	4921,27
477,12	5109,68
477,32	5093,30
477,53	5291,95
477,73	5144,50
477,93	5087,15
478,13	5152,69
478,33	5052,34
478,54	5060,53
478,74	5285,81
478,94	5216,18
479,14	5380,01
479,34	5224,37
479,55	5404,59
479,75	5347,25
479,95	5398,45
480,15	5396,40
480,35	5453,74
480,56	5404,59
480,76	5552,04
480,96	5529,52
481,16	5629,87
481,36	5463,98
481,57	5420,97
481,77	5562,28
481,97	5511,08
482,17	5529,52
482,37	5650,35
482,58	5781,42
482,78	5674,92
482,98	5773,22
483,18	5619,63
483,38	5724,07
483,58	5756,84
483,79	5838,76
483,99	5863,33
484,19	5801,90
484,39	5863,33
484,59	6008,74
484,80	6072,23
485,00	5863,33
485,20	5797,80
485,40	6162,34
485,60	6160,29
485,80	6133,67
486,01	6309,79
486,21	6133,67
486,41	6207,39
486,61	6397,85
486,81	6231,97
487,01	6293,41
487,22	6322,08
487,42	6365,09
487,62	6326,18
487,82	6365,09
488,02	6264,74
488,22	6383,52
488,42	6506,40
488,63	6365,09
488,83	6477,73
489,03	6453,15
489,23	6477,73
489,43	6586,27
489,63	6649,75
489,83	6498,20
490,04	6561,69
490,24	6606,75
490,44	6404,00
490,64	6490,01
490,84	6389,66
491,04	6668,19
491,24	6569,88
491,44	6700,95
491,65	6854,55
491,85	6915,99
492,05	6879,13
492,25	6715,29
492,45	6789,02
492,65	6791,06
492,85	6731,67
493,05	6709,15
493,26	6539,16
493,46	6483,87
493,66	6487,96
493,86	6338,46
494,06	6477,73
494,26	6346,66
494,46	6504,35
494,66	6223,78
494,86	6379,42
495,07	6481,82
495,27	6346,66
495,47	6490,01
495,67	6469,53
495,87	6395,81
496,07	6436,77
496,27	6408,09
496,47	6354,85
496,67	6199,20
496,87	6338,46
497,08	6373,28
497,28	6414,24
497,48	6465,44
497,68	6354,85
497,88	6322,08
498,08	6348,70
498,28	6240,16
498,48	6354,85
498,68	6322,08
498,88	6350,75
499,08	6313,89
499,29	6260,64
499,49	6358,94
499,69	6223,78
499,89	6186,91
500,09	6342,56
500,29	6350,75
500,49	6301,60
500,69	6305,70
500,89	6109,09
501,09	6094,76
501,29	6223,78
501,49	6125,47
501,69	6168,48
501,89	6092,71
502,09	6281,12
502,30	6051,75
502,50	6191,01
502,70	6135,71
502,90	6248,35
503,10	6117,28
503,30	6137,76
503,50	5957,54
503,70	5961,64
503,90	6010,79
504,10	6154,15
504,30	6010,79
504,50	6109,09
504,70	6125,47
504,90	6010,79
505,10	5963,68
505,30	6080,42
505,50	6119,33
505,70	6201,25
505,90	5978,02
506,10	6029,22
506,30	5996,45
506,50	6119,33
506,70	6086,56
506,90	6043,56
507,11	6078,37
507,31	6084,52
507,51	5887,91
507,71	5941,16
507,91	5912,49
508,11	6117,28
508,31	6084,52
508,51	5879,72
508,71	6051,75
508,91	6037,41
509,11	5830,57
509,31	6061,99
509,51	5992,36
509,71	5918,63
509,91	6109,09
510,11	5838,76
510,31	6117,28
510,51	5957,54
510,71	5914,53
510,91	5986,21
511,11	6018,98
511,31	6127,52
511,51	5978,02
511,71	5822,38
511,91	5986,21
512,11	5851,05
512,31	5920,68
512,51	5986,21
512,71	5965,73
512,91	5945,25
513,11	5945,25
513,31	5898,15
513,51	6068,13
513,71	5904,29
513,91	5916,58
514,11	6100,90
514,31	6272,93
514,51	6018,98
514,71	6014,88
514,90	6166,43
515,10	5965,73
515,30	6135,71
515,50	6076,32
515,70	6219,68
515,90	6068,13
516,10	6035,36
516,30	6004,64
516,50	6018,98
516,70	6281,12
516,90	6051,75
517,10	6272,93
517,30	6395,81
517,50	6182,82
517,70	6125,47
517,90	6313,89
518,10	6117,28
518,30	6438,81
518,50	6322,08
518,70	6301,60
518,90	6201,25
519,10	6297,50
519,30	6514,59
519,50	6512,54
519,69	6332,32
519,89	6260,64
520,09	6268,83
520,29	6424,48
520,49	6496,16
520,69	6379,42
520,89	6430,62
521,09	6477,73
521,29	6854,55
521,49	6395,81
521,69	6666,14
521,89	6651,80
522,09	6674,33
522,29	6686,62
522,48	6551,45
522,68	6600,60
522,88	6723,48
523,08	6657,95
523,28	6674,33
523,48	6829,98
523,68	6715,29
523,88	6797,21
524,08	6725,53
524,28	6887,32
524,48	6862,74
524,68	6772,63
524,87	6780,82
525,07	6922,13
525,27	6739,87
525,47	6854,55
525,67	6879,13
525,87	6842,26
526,07	7069,59
526,27	6854,55
526,47	7124,88
526,67	7020,44
526,86	7004,05
527,06	7088,02
527,26	7034,77
527,46	7227,28
527,66	6961,05
527,86	7002,01
528,06	7124,88
528,26	7387,02
528,46	7206,80
528,65	7178,13
528,85	7077,78
529,05	7348,11
529,25	7307,15
529,45	7305,10
529,65	7206,80
529,85	7477,13
530,05	7427,98
530,24	7518,09
530,44	7460,75
530,64	7518,09
530,84	7559,05
531,04	7591,82
531,24	7571,34
531,44	7624,59
531,63	7665,55
531,83	7919,50
532,03	7899,02
532,23	7755,66
532,43	8140,68
532,63	8034,18
532,83	7739,27
533,02	8075,14
533,22	7976,84
533,42	8017,80
533,62	8198,02
533,82	8101,76
534,02	8353,66
534,22	8249,22
534,41	8296,32
534,61	8206,21
534,81	8339,33
535,01	8382,34
535,21	8406,91
535,41	8607,61
535,60	8546,17
535,80	8476,54
536,00	8439,68
536,20	8564,61
536,40	8931,19
536,60	8763,26
536,79	9082,74
536,99	8902,52
537,19	9140,08
537,39	9099,13
537,59	9250,67
537,78	9387,89
537,98	9199,48
538,18	9312,11
538,38	9496,43
538,58	9369,46
538,77	9910,12
538,97	9471,86
539,17	9666,41
539,37	9928,55
539,57	9893,74
539,77	10000,23
539,96	10172,26
540,16	10051,43
540,36	10385,25
540,56	10364,77
540,76	10319,71
540,95	10688,35
541,15	10755,93
541,35	10975,06
541,55	11233,11
541,74	11593,55
541,94	11859,79
542,14	12068,68
542,34	12263,24
542,54	12492,61
542,73	12617,54
542,93	12721,98
543,13	13016,89
543,33	12916,54
543,53	13221,69
543,72	13346,61
543,92	13287,22
544,12	13350,71
544,32	13432,63
544,51	13588,27
544,71	13539,12
544,91	13510,45
545,11	13686,58
545,30	16316,17
545,50	22820,52
545,70	34717,17
545,90	46054,72
546,10	56106,15
546,29	62295,11
546,49	59010,17
546,69	52200,68
546,89	44600,66
547,08	39234,99
547,28	33994,23
547,48	29769,27
547,68	25632,38
547,87	21673,65
548,07	18482,92
548,27	15888,14
548,47	14784,29
548,66	13901,61
548,86	13385,52
549,06	13498,16
549,25	13199,16
549,45	13205,30
549,65	13162,30
549,85	13104,95
550,04	13240,12
550,24	13162,30
550,44	13256,50
550,64	13113,14
550,83	13367,09
551,03	13264,69
551,23	13317,94
551,43	13449,01
551,62	13393,72
551,82	13469,49
552,02	13428,53
552,21	13584,18
552,41	13758,25
552,61	13713,20
552,81	13477,68
553,00	13813,55
553,20	13668,14
553,40	13711,15
553,59	13588,27
553,79	13481,78
553,99	13629,23
554,18	13719,34
554,38	13727,53
554,58	14087,98
554,78	13920,04
554,97	14051,11
555,17	14130,98
555,37	13825,84
555,56	13950,76
555,76	14042,92
555,96	14014,25
556,15	13981,48
556,35	14108,46
556,55	14235,43
556,74	14026,54
556,94	14513,95
557,14	14417,70
557,34	14245,67
557,53	14264,10
557,73	14505,76
557,93	14522,15
558,12	14665,50
558,32	14593,83
558,52	14645,02
558,71	14724,90
558,91	14628,64
559,11	14997,28
559,30	15050,52
559,50	14808,86
559,70	15005,47
559,89	14925,60
560,09	14833,44
560,29	15132,44
560,48	14937,88
560,68	15271,70
560,88	15402,77
561,07	15148,82
561,27	15013,66
561,46	15410,96
561,66	15402,77
561,86	15499,03
562,05	15202,07
562,25	15351,57
562,45	15529,75
562,64	15677,20
562,84	15484,69
563,04	15644,43
563,23	15595,28
563,43	15838,99
563,63	15744,78
563,82	15808,27
564,02	15750,93
564,21	15863,57
564,41	15652,63
564,61	15931,15
564,80	16021,26
565,00	16043,79
565,20	16097,03
565,39	16074,51
565,59	16072,46
565,78	16189,19
565,98	16271,11
566,18	15849,23
566,37	15976,20
566,57	16209,67
566,77	16424,71
566,96	16267,02
567,16	16416,52
567,35	15982,35
567,55	16529,16
567,75	16566,02
567,94	16250,63
568,14	16586,50
568,33	16588,55
568,53	16709,38
568,73	16707,33
568,92	16426,76
569,12	16684,80
569,31	16695,04
569,51	16695,04
569,71	16758,53
569,90	16858,88
570,10	16807,68
570,29	16692,99
570,49	16746,24
570,69	16738,05
570,88	16762,62
571,08	16594,69
571,27	16779,01
571,47	16692,99
571,66	16801,54
571,86	16905,98
572,06	17049,34
572,25	16922,37
572,45	16791,30
572,64	16537,35
572,84	17071,87
573,03	16783,10
573,23	16973,56
573,43	16774,91
573,62	16860,93
573,82	17086,20
574,01	16924,41
574,21	16979,71
574,40	16930,56
574,60	17108,73
574,79	17053,44
574,99	17161,98
575,19	17164,03
575,38	17127,16
575,58	16942,85
575,77	17051,39
575,97	17055,48
576,16	17413,88
576,36	18439,91
576,55	20113,10
576,75	21989,04
576,94	23928,47
577,14	25032,32
577,34	24675,98
577,53	23697,05
577,73	22652,58
577,92	21636,79
578,12	20965,06
578,31	20827,84
578,51	21190,33
578,70	21886,64
578,90	22984,35
579,09	24340,11
579,29	24641,16
579,48	23754,39
579,68	22714,02
579,87	21388,99
580,07	20948,67
580,26	20258,51
580,46	19562,20
580,65	19269,34
580,85	18472,68
581,04	18015,98
581,24	17577,72
581,43	17350,39
581,63	16959,23
581,82	17067,77
582,02	16893,69
582,21	17096,44
582,41	16987,90
582,60	16652,03
582,80	16803,58
582,99	17221,37
583,19	16520,96
583,38	16973,56
583,58	16578,31
583,77	16873,21
583,97	16721,66
584,16	16668,42
584,36	16490,24
584,55	16535,30
584,75	16588,55
584,94	16488,20
585,14	16185,10
585,33	16109,32
585,53	16529,16
585,72	16127,75
585,92	16252,68
586,11	16168,71
586,31	16111,37
586,50	16439,05
586,70	16105,23
586,89	16019,21
587,09	16144,14
587,28	15800,08
587,47	15998,73
587,67	16264,97
587,86	15988,49
588,06	15974,16
588,25	15992,59
588,45	16054,03
588,64	15890,19
588,84	15709,97
589,03	15746,83
589,23	15519,51
589,42	15589,14
589,61	15374,10
589,81	15378,20
590,00	15347,48
590,20	15546,13
590,39	15159,06
590,59	15193,88
590,78	15212,31
590,98	15001,37
591,17	15025,95
591,36	14858,01
591,56	14718,75
591,75	14913,31
591,95	14894,88
592,14	14538,53
592,34	14825,25
592,53	14669,60
592,72	14743,33
592,92	14667,55
593,11	14812,96
593,31	14571,30
593,50	14616,35
593,69	14677,79
593,89	14341,93
594,08	14444,32
594,28	14247,72
594,47	14321,45
594,67	14333,73
594,86	14047,02
595,05	13850,41
595,25	13915,95
595,44	13678,38
595,64	13721,39
595,83	13928,24
596,02	13834,03
596,22	13580,08
596,41	13612,85
596,61	13602,61
596,80	13420,34
596,99	13387,57
597,19	13072,18
597,38	13104,95
597,58	13342,52
597,77	13211,45
597,96	13088,57
598,16	13129,53
598,35	12937,02
598,54	13074,23
598,74	12863,29
598,93	13107,00
599,13	12883,77
599,32	12674,88
599,51	12687,17
599,71	12828,48
599,90	12760,89
600,09	12576,58
600,29	12408,64
600,48	12633,92
600,68	12486,47
600,87	12584,77
601,06	12597,06
601,26	12187,46
601,45	12322,63
601,64	12062,54
601,84	12205,89
602,03	12048,20
602,22	12195,65
602,42	11992,90
602,61	11827,02
602,80	11859,79
603,00	12021,58
603,19	11575,12
603,38	11982,67
603,58	11728,72
603,77	11720,53
603,96	11568,98
604,16	11437,91
604,35	11468,62
604,54	11409,23
604,74	11507,54
604,93	11511,63
605,12	11269,97
605,32	11509,58
605,51	11280,21
605,70	11411,28
605,90	11097,94
606,09	11126,61
606,28	11122,52
606,48	10942,30
606,67	11024,22
606,86	11081,56
607,06	10958,68
607,25	11032,41
607,44	10831,71
607,64	10813,28
607,83	10803,04
608,02	10741,60
608,22	10622,81
608,41	10805,08
608,60	10565,47
608,79	10649,44
608,99	10506,08
609,18	10565,47
609,37	10714,97
609,57	10794,84
609,76	10741,60
609,95	10389,35
610,15	10680,16
610,34	10843,99
610,53	10786,65
610,72	11163,48
610,92	11366,23
611,11	11673,42
611,30	12230,47
611,50	12179,27
611,69	12289,86
611,88	12242,76
612,07	12146,50
612,27	11820,88
612,46	11605,84
612,65	11362,13
612,84	11394,90
613,04	11073,37
613,23	10915,67
613,42	10942,30
613,62	10753,88
613,81	10565,47
614,00	10563,42
614,19	10524,51
614,39	10223,46
614,58	10168,16
614,77	10114,92
614,96	10147,69
615,16	10119,01
615,35	9946,98
615,54	9951,08
615,73	9903,98
615,93	9856,87
616,12	9848,68
616,31	9459,57
616,50	9748,33
616,70	9688,94
616,89	9578,35
617,08	9480,05
617,27	9672,56
617,47	9410,42
617,66	9299,83
617,85	9265,01
618,04	9213,81
618,23	9432,94
618,43	9224,05
618,62	9412,46
618,81	9453,42
619,00	9281,39
619,20	9185,14
619,39	9181,04
619,58	9320,31
619,77	9166,71
619,96	9246,58
620,16	9248,63
620,35	9185,14
620,54	9078,65
620,73	9166,71
620,93	9140,08
621,12	9279,35
621,31	9201,52
621,50	9062,26
621,69	9160,56
621,89	8994,68
622,08	8959,86
622,27	9000,82
622,46	8869,75
622,65	8951,67
622,85	8994,68
623,04	8947,58
623,23	8808,31
623,42	8808,31
623,61	8845,18
623,81	8773,50
624,00	8865,66
624,19	8746,87
624,38	8673,15
624,57	8599,42
624,76	8710,01
624,96	8660,86
625,15	8312,71
625,34	8394,62
625,53	8503,17
625,72	8476,54
625,91	8284,03
626,11	8101,76
626,30	8179,59
626,49	8263,55
626,68	8245,12
626,87	8306,56
627,06	8085,38
627,26	8025,99
627,45	8077,19
627,64	8058,76
627,83	7833,48
628,02	7946,12
628,21	7894,92
628,41	7751,56
628,60	7905,16
628,79	7798,66
628,98	7747,47
629,17	7661,45
629,36	7626,64
629,55	7665,55
629,75	7503,76
629,94	7640,97
630,13	7526,29
630,32	7577,48
630,51	7444,37
630,70	7423,89
630,89	7376,78
631,09	7460,75
631,28	7397,26
631,47	7456,65
631,66	7159,70
631,85	7341,97
632,04	7167,89
632,23	7104,40
632,42	7077,78
632,62	7020,44
632,81	6784,92
633,00	7018,39
633,19	6748,06
633,38	6797,21
633,57	6567,84
633,76	6692,76
633,95	6608,80
634,14	6602,65
634,34	6479,77
634,53	6584,22
634,72	6553,50
634,91	6592,41
635,10	6313,89
635,29	6440,86
635,48	6281,12
635,67	6240,16
635,86	6379,42
636,05	6244,26
636,24	6139,81
636,44	6141,86
636,63	6182,82
636,82	6111,14
637,01	6281,12
637,20	6127,52
637,39	6006,69
637,58	5857,19
637,77	6037,41
637,96	6061,99
638,15	5859,24
638,34	5846,95
638,53	5826,47
638,73	5773,22
638,92	5666,73
639,11	5734,31
639,30	5736,36
639,49	5740,46
639,68	5601,19
639,87	5504,94
640,06	5633,96
640,25	5646,25
640,44	5670,83
640,63	5593,00
640,82	5461,93
641,01	5535,66
641,20	5539,76
641,39	5392,30
641,58	5545,90
641,77	5371,82
641,96	5318,57
642,16	5302,19
642,35	5265,33
642,54	5433,26
642,73	5240,75
642,92	5322,67
643,11	5212,08
643,30	5240,75
643,49	5093,30
643,68	5269,42
643,87	5105,59
644,06	5085,11
644,25	5087,15
644,44	5101,49
644,63	5095,35
644,82	5068,72
645,01	4945,84
645,20	4931,51
645,39	5089,20
645,58	4798,39
645,77	4839,35
645,96	4831,16
646,15	4822,97
646,34	4892,60
646,53	4765,62
646,72	4700,09
646,91	4851,64
647,10	4603,83
647,29	4716,47
647,48	4745,14
647,67	4693,94
647,86	4585,40
648,05	4757,43
648,24	4511,68
648,43	4782,01
648,62	4581,31
648,81	4554,68
649,00	4491,20
649,19	4655,03
649,38	4478,91
649,57	4487,10
649,76	4396,99
649,95	4421,56
650,14	4511,68
650,33	4343,74
650,52	4323,26
650,71	4380,61
650,90	4405,18
651,09	4364,22
651,28	4276,16
651,47	4331,45
651,66	4425,66
651,85	4229,06
652,04	4233,15
652,23	4110,27
652,42	4159,42
652,61	4194,24
652,80	4208,58
652,99	4005,83
653,17	4147,14
653,36	4145,09
653,55	4057,03
653,74	3997,64
653,93	3952,58
654,12	4167,62
654,31	3934,15
654,50	3942,34
654,69	3946,44
654,88	3932,10
655,07	3876,80
655,26	3811,27
655,45	3831,75
655,64	3913,67
655,83	3823,56
656,02	3872,71
656,21	3807,17
656,39	3831,75
656,58	3841,99
656,77	3659,72
656,96	3782,60
657,15	3850,18
657,34	3917,76
657,53	3622,86
657,72	3762,12
657,91	3692,49
658,10	3626,95
658,29	3579,85
658,48	3651,53
658,67	3651,53
658,85	3637,19
659,04	3520,46
659,23	3553,23
659,42	3508,17
659,61	3475,40
659,80	3481,55
659,99	3520,46
660,18	3440,59
660,37	3399,63
660,56	3397,58
660,74	3463,12
660,93	3250,13
661,12	3348,43
661,31	3291,09
661,50	3323,85
661,69	3350,48
661,88	3463,12
662,07	3282,89
662,26	3356,62
662,44	3276,75
662,63	3291,09
662,82	3307,47
663,01	3278,80
663,20	3252,17
663,39	3198,93
663,58	3315,66
663,77	3203,02
663,95	3188,69
664,14	3217,36
664,33	3160,02
664,52	3069,91
664,71	3209,17
664,90	3151,82
665,09	3137,49
665,27	3203,02
665,46	3078,10
665,65	3061,71
665,84	3090,38
666,03	3037,14
666,22	3037,14
666,41	3057,62
666,59	2893,78
666,78	2926,55
666,97	3022,80
667,16	3000,27
667,35	2963,41
667,54	2975,70
667,72	2922,45
667,91	2983,89
668,10	2914,26
668,29	2973,65
668,48	2897,88
668,67	2932,69
668,85	2918,36
669,04	2901,97
669,23	2820,05
669,42	2922,45
669,61	2785,24
669,80	2938,84
669,98	2856,92
670,17	2785,24
670,36	2807,77
670,55	2709,46
670,74	2711,51
670,92	2799,57
671,11	2768,85
671,30	2701,27
671,49	2775,00
671,68	2750,42
671,86	2754,52
672,05	2848,72
672,24	2818,00
672,43	2727,89
672,62	2725,85
672,80	2668,50
672,99	2645,98
673,18	2588,63
673,37	2643,93
673,56	2725,85
673,74	2637,78
673,93	2701,27
674,12	2605,02
674,31	2562,01
674,50	2529,24
674,68	2482,14
674,87	2602,97
675,06	2629,59
675,25	2426,84
675,43	2525,15
675,62	2537,43
675,81	2537,43
676,00	2531,29
676,19	2549,72
676,37	2498,52
676,56	2465,75
676,75	2533,34
676,94	2512,86
677,12	2582,49
677,31	2480,09
677,50	2414,56
677,69	2508,76
677,87	2457,56
678,06	2490,33
678,25	2439,13
678,44	2447,32
678,62	2342,88
678,81	2389,98
679,00	2482,14
679,19	2463,71
679,37	2394,08
679,56	2357,21
679,75	2463,71
679,94	2416,60
680,12	2334,68
680,31	2357,21
680,50	2375,64
680,68	2351,07
680,87	2267,10
681,06	2389,98
681,25	2287,58
681,43	2416,60
681,62	2271,20
681,81	2389,98
682,00	2269,15
682,18	2420,70
682,37	2197,47
682,56	2234,33
682,74	2334,68
682,93	2308,06
683,12	2252,77
683,31	2269,15
683,49	2273,25
683,68	2242,53
683,87	2217,95
684,05	2246,62
684,24	2250,72
684,43	2176,99
684,61	2260,96
684,80	2170,85
684,99	2080,74
685,18	2195,42
685,36	2146,27
685,55	2174,94
685,74	2160,61
685,92	2152,42
686,11	2121,70
686,30	2176,99
686,48	2041,82
686,67	2152,42
686,86	2187,23
687,04	2119,65
687,23	2199,52
687,42	2144,22
687,60	2213,85
687,79	2179,04
687,98	2168,80
688,16	2217,95
688,35	2117,60
688,54	2197,47
688,72	2652,12
688,91	2197,47
689,10	2111,46
689,28	2070,50
689,47	2164,70
689,66	2099,17
689,84	2121,70
690,03	2119,65
690,22	2213,85
690,40	2277,34
690,59	2209,76
690,78	2258,91
690,96	2301,92
691,15	2250,72
691,34	2170,85
691,52	2095,07
691,71	2242,53
691,89	2213,85
692,08	2078,69
692,27	2105,31
692,45	2129,89
692,64	2119,65
692,83	1998,82
693,01	2021,35
693,20	2119,65
693,38	1992,67
693,57	2029,54
693,76	2021,35
693,94	2107,36
694,13	2070,50
694,32	1964,00
694,50	2090,98
694,69	1933,28
694,87	1988,58
695,06	2013,15
695,25	2017,25
695,43	2007,01
695,62	1988,58
695,80	2021,35
695,99	1918,95
696,18	1996,77
696,36	2136,03
696,55	2205,66
696,73	2088,93
696,92	2209,76
697,11	2129,89
697,29	2107,36
697,48	2152,42
697,66	2193,37
697,85	2033,63
698,04	1968,10
698,22	2021,35
698,41	1959,91
698,59	1957,86
698,78	1841,12
698,96	1923,04
699,15	1890,28
699,34	1875,94
699,52	1939,43
699,71	1896,42
699,89	1918,95
700,08	1851,36
700,26	1947,62
700,45	1927,14
700,64	1906,66
700,82	1796,07
701,01	1841,12
701,19	1964,00
701,38	1808,36
701,56	1980,39
701,75	1877,99
701,93	1824,74
702,12	1751,01
702,31	1890,28
702,49	1857,51
702,68	1931,23
702,86	1869,80
703,05	1892,32
703,23	1906,66
703,42	2025,44
703,60	1873,89
703,79	1857,51
703,97	1869,80
704,16	1923,04
704,34	1906,66
704,53	1882,08
704,72	1767,40
704,90	1796,07
705,09	1955,81
705,27	1845,22
705,46	1933,28
705,64	1837,03
705,83	1832,93
706,01	1812,45
706,20	1865,70
706,38	1966,05
706,57	2066,40
706,75	2007,01
706,94	2156,51
707,12	2070,50
707,31	2088,93
707,49	2062,30
707,68	2031,58
707,86	2070,50
708,05	2021,35
708,23	2013,15
708,42	2064,35
708,60	1941,47
708,79	1900,52
708,97	2070,50
709,16	2045,92
709,34	1964,00
709,53	1882,08
709,71	1974,24
709,90	1951,71
710,08	1824,74
710,27	1867,75
710,45	1865,70
710,64	1865,70
710,82	1783,78
711,00	2176,99
711,19	1824,74
711,37	1701,86
711,56	1783,78
711,74	1775,59
711,93	1787,88
712,11	1834,98
712,30	1808,36
712,48	1777,64
712,67	1882,08
712,85	1828,84
713,04	1898,47
713,22	1857,51
713,40	1808,36
713,59	1783,78
713,77	1849,32
713,96	1810,40
714,14	1816,55
714,33	1751,01
714,51	1779,68
714,70	1710,05
714,88	1818,60
715,06	1671,14
715,25	1791,97
715,43	1832,93
715,62	1720,29
715,80	1718,25
715,99	1701,86
716,17	1751,01
716,35	1669,09
716,54	1701,86
716,72	1742,82
716,91	1734,63
717,09	1800,16
717,28	1712,10
717,46	1865,70
717,64	1734,63
717,83	1728,49
718,01	1621,99
718,20	1734,63
718,38	1624,04
718,56	1644,52
718,75	1701,86
718,93	1679,33
719,12	1644,52
719,30	1726,44
719,48	1726,44
719,67	1669,09
719,85	1679,33
720,04	1751,01
720,22	1644,52
720,40	1652,71
720,59	1742,82
720,77	1734,63
720,96	1701,86
721,14	1677,29
721,32	1677,29
721,51	1751,01
721,69	1677,29
721,87	1660,90
722,06	1730,53
722,24	1718,25
722,43	1687,53
722,61	1726,44
722,79	1693,67
722,98	1718,25
723,16	1679,33
723,34	1775,59
723,53	1628,14
723,71	1669,09
723,90	1697,77
724,08	1595,37
724,26	1681,38
724,45	1660,90
724,63	1662,95
724,81	1712,10
725,00	1699,81
725,18	1613,80
725,36	1605,61
725,55	1679,33
725,73	1576,94
725,91	1726,44
726,10	1660,90
726,28	1644,52
726,46	1697,77
726,65	1662,95
726,83	1693,67
727,01	1646,57
727,20	1630,18
727,38	1710,05
727,56	1734,63
727,75	1685,48
727,93	1693,67
728,11	1630,18
728,30	1628,14
728,48	1578,98
728,66	1619,94
728,85	1591,27
729,03	1755,11
729,21	1583,08
729,40	1669,09
729,58	1660,90
729,76	1546,22
729,94	1701,86
730,13	1621,99
730,31	1611,75
730,49	1564,65
730,68	1632,23
730,86	1636,33
731,04	1648,61
731,23	1665,00
731,41	1546,22
731,59	1595,37
731,77	1660,90
731,96	1718,25
732,14	1714,15
732,32	1603,56
732,51	1529,83
732,69	1636,33
732,87	1644,52
733,05	1775,59
733,24	1589,22
733,42	1712,10
733,60	1595,37
733,79	1613,80
733,97	1613,80
734,15	1566,70
734,33	1611,75
734,52	1533,93
734,70	1701,86
734,88	1761,25
735,06	1636,33
735,25	1630,18
735,43	1646,57
735,61	1587,18
735,79	1654,76
735,98	1613,80
736,16	2088,93
736,34	1548,26
736,52	1581,03
736,71	1611,75
736,89	1607,66
737,07	1644,52
737,25	1605,61
737,44	1597,42
737,62	1662,95
737,80	1685,48
737,98	1759,21
738,17	1751,01
738,35	1873,89
738,53	1945,57
738,71	1988,58
738,89	1910,75
739,08	1923,04
739,26	1964,00
739,44	1791,97
739,62	1818,60
739,81	1751,01
739,99	1701,86
740,17	1738,73
740,35	1671,14
740,53	1710,05
740,72	1587,18
740,90	1607,66
741,08	1548,26
741,26	1499,11
741,44	1685,48
741,63	1605,61
741,81	1644,52
741,99	1589,22
742,17	1558,50
742,35	1605,61
742,54	1523,69
742,72	1662,95
742,90	1529,83
743,08	1578,98
743,26	1488,87
743,45	1636,33
743,63	1621,99
743,81	1578,98
743,99	1662,95
744,17	1538,02
744,35	1652,71
744,54	1652,71
744,72	1587,18
744,90	1597,42
745,08	1628,14
745,26	1630,18
745,44	1546,22
745,63	1546,22
745,81	1611,75
745,99	1583,08
746,17	1540,07
746,35	1529,83
746,53	1546,22
746,72	1515,50
746,90	1550,31
747,08	1562,60
747,26	1591,27
747,44	1636,33
747,62	1718,25
747,81	1574,89
747,99	1476,59
748,17	1515,50
748,35	1519,59
748,53	1507,30
748,71	1636,33
748,89	1669,09
749,07	1673,19
749,26	1474,54
749,44	1492,97
749,62	1599,46
749,80	1564,65
749,98	1581,03
750,16	1710,05
750,34	1722,34
750,52	1742,82
750,71	1753,06
750,89	1869,80
751,07	1908,71
751,25	1939,43
751,43	1906,66
751,61	1982,43
751,79	1955,81
751,97	1910,75
752,15	1898,47
752,34	1923,04
752,52	1841,12
752,70	1734,63
752,88	1775,59
753,06	1679,33
753,24	1636,33
753,42	1570,79
753,60	1628,14
753,78	1562,60
753,96	1570,79
754,15	1628,14
754,33	1531,88
754,51	1587,18
754,69	1538,02
754,87	1611,75
755,05	1554,41
755,23	1511,40
755,41	1490,92
755,59	1558,50
755,77	1505,26
755,95	1509,35
756,13	1669,09
756,31	1564,65
756,50	1529,83
756,68	1521,64
756,86	1581,03
757,04	1531,88
757,22	1652,71
757,40	1570,79
757,58	1566,70
757,76	1587,18
757,94	1578,98
758,12	1578,98
758,30	1517,54
758,48	1499,11
758,66	1576,94
758,84	1603,56
759,02	1548,26
759,20	1595,37
759,38	1646,57
759,56	1538,02
759,74	1673,19
759,92	1529,83
760,10	1572,84
760,28	1583,08
760,47	1542,12
760,65	1564,65
760,83	1538,02
761,01	1490,92
761,19	1521,64
761,37	1474,54
761,55	1490,92
761,73	1470,44
761,91	1636,33
762,09	1562,60
762,27	1591,27
762,45	1630,18
762,63	1644,52
762,81	1935,33
762,99	2185,18
763,17	2480,09
763,35	2865,11
763,53	3235,79
763,71	3409,87
763,89	3602,38
764,07	3192,78
764,25	2996,18
764,43	2785,24
764,61	2512,86
764,79	2185,18
764,97	2017,25
765,15	2039,78
765,33	1947,62
765,51	1818,60
765,69	1796,07
765,87	1783,78
766,05	1738,73
766,23	1720,29
766,41	1693,67
766,58	1673,19
766,76	1583,08
766,94	1531,88
767,12	1558,50
767,30	1449,96
767,48	1486,83
767,66	1507,30
767,84	1570,79
768,02	1677,29
768,20	1589,22
768,38	1619,94
768,56	1554,41
768,74	1546,22
768,92	1523,69
769,10	1587,18
769,28	1548,26
769,46	1509,35
769,64	1630,18
769,82	1677,29
770,00	1603,56
770,18	1538,02
770,36	1562,60
770,53	1595,37
770,71	1562,60
770,89	1624,04
771,07	1521,64
771,25	1556,46
771,43	1548,26
771,61	1640,42
771,79	1630,18
771,97	1775,59
772,15	1941,47
772,33	1966,05
772,51	2045,92
772,69	2095,07
772,86	2047,97
773,04	1998,82
773,22	1906,66
773,40	1845,22
773,58	1812,45
773,76	1785,83
773,94	1574,89
774,12	1636,33
774,30	1603,56
774,48	1636,33
774,65	1546,22
774,83	1447,91
775,01	1624,04
775,19	1578,98
775,37	1431,53
775,55	1581,03
775,73	1572,84
775,91	1484,78
776,09	1587,18
776,26	1464,30
776,44	1501,16
776,62	1578,98
776,80	1533,93
776,98	1441,77
777,16	1480,68
777,34	1546,22
777,52	1458,15
777,69	1548,26
777,87	1464,30
778,05	1505,26
778,23	1505,26
778,41	1570,79
778,59	1523,69
778,77	1480,68
778,94	1499,11
779,12	1464,30
779,30	1480,68
779,48	1597,42
779,66	1601,51
779,84	1607,66
780,02	1525,74
780,19	1497,07
780,37	1488,87
780,55	1546,22
780,73	1529,83
780,91	1540,07
781,09	1550,31
781,26	1626,09
781,44	1458,15
781,62	1509,35
781,80	1529,83
781,98	1456,11
782,16	1447,91
782,33	1562,60
782,51	1611,75
782,69	1488,87
782,87	1523,69
783,05	1509,35
783,22	1738,73
783,40	1570,79
783,58	1482,73
783,76	1505,26
783,94	1515,50
784,12	1466,35
784,29	1460,20
784,47	1497,07
784,65	1562,60
784,83	1554,41
785,01	1562,60
785,18	1492,97
785,36	1398,76
785,54	1578,98
785,72	1554,41
785,89	1595,37
786,07	1513,45
786,25	1431,53
786,43	1497,07
786,61	1515,50
786,78	1497,07
786,96	1599,46
787,14	1558,50
787,32	1529,83
787,49	1595,37
787,67	1466,35
787,85	1419,24
788,03	1505,26
788,21	1529,83
788,38	1505,26
788,56	1480,68
788,74	1480,68
788,92	1546,22
789,09	1521,64
789,27	1456,11
789,45	1482,73
789,63	1472,49
789,80	1449,96
789,98	1548,26
790,16	1521,64
790,34	1439,72
790,51	1497,07
790,69	1456,11
790,87	1482,73
791,05	1431,53
791,22	1521,64
791,40	1474,54
791,58	1464,30
791,76	1523,69
791,93	1570,79
792,11	1603,56
792,29	1464,30
792,46	1460,20
792,64	1497,07
792,82	1562,60
793,00	1490,92
793,17	1452,01
793,35	1507,30
793,53	1574,89
793,70	1484,78
793,88	1452,01
794,06	1646,57
794,24	1554,41
794,41	1638,38
794,59	1742,82
794,77	1804,26
794,94	1959,91
795,12	1857,51
795,30	1785,83
795,47	1726,44
795,65	1619,94
795,83	1605,61
796,01	1570,79
796,18	1562,60
796,36	1515,50
796,54	1587,18
796,71	1626,09
796,89	1556,46
797,07	1585,13
797,24	1490,92
797,42	1578,98
797,60	1562,60
797,77	1546,22
797,95	1574,89
798,13	1499,11
798,30	1521,64
798,48	1456,11
798,66	1460,20
798,83	1613,80
799,01	1488,87
799,19	1519,59
799,36	1521,64
799,54	1482,73
799,72	1538,02
799,89	1480,68
800,07	1546,22
800,25	1556,46
800,42	1636,33
800,60	1808,36
800,78	1720,29
800,95	1939,43
801,13	2015,20
801,30	1906,66
801,48	2037,73
801,66	1982,43
801,83	1923,04
802,01	1849,32
802,19	1734,63
802,36	1660,90
802,54	1679,33
802,72	1744,87
802,89	1695,72
803,07	1531,88
803,24	1652,71
803,42	1603,56
803,60	1515,50
803,77	1515,50
803,95	1570,79
804,12	1546,22
804,30	1521,64
804,48	1490,92
804,65	1513,45
804,83	1570,79
805,01	1538,02
805,18	1472,49
805,36	1456,11
805,53	1415,15
805,71	1488,87
805,88	1484,78
806,06	1484,78
806,24	1484,78
806,41	1529,83
806,59	1406,95
806,76	1425,39
806,94	1505,26
807,12	1464,30
807,29	1521,64
807,47	1509,35
807,64	1574,89
807,82	1466,35
807,99	1425,39
808,17	1521,64
808,35	1456,11
808,52	1476,59
808,70	1529,83
808,87	1443,82
809,05	1523,69
809,22	1474,54
809,40	1464,30
809,58	1507,30
809,75	1499,11
809,93	1595,37
810,10	1785,83
810,28	1808,36
810,45	1972,19
810,63	2078,69
810,80	2074,59
810,98	2422,75
811,15	2619,35
811,33	2967,51
811,51	3211,22
811,68	3246,03
811,86	3143,63
812,03	2979,79
812,21	2711,51
812,38	2488,28
812,56	2275,29
812,73	2148,32
812,91	2095,07
813,08	2033,63
813,26	1908,71
813,43	1873,89
813,61	1918,95
813,78	1890,28
813,96	1775,59
814,13	1687,53
814,31	1697,77
814,48	1621,99
814,66	1546,22
814,83	1497,07
815,01	1562,60
815,18	1640,42
815,36	1538,02
815,53	1540,07
815,71	1521,64
815,88	1509,35
816,06	1519,59
816,23	1492,97
816,41	1429,48
816,58	1480,68
816,76	1767,40
816,93	1472,49
817,11	1507,30
817,28	1423,34
817,46	1505,26
817,63	1497,07
817,81	1480,68
817,98	1431,53
818,16	1431,53
818,33	1445,87
818,51	1484,78
818,68	1398,76
818,86	1439,72
819,03	1406,95
819,21	1431,53
819,38	1488,87
819,55	1482,73
819,73	1521,64
819,90	1390,57
820,08	1464,30
820,25	1501,16
820,43	1423,34
820,60	1398,76
820,78	1488,87
820,95	1482,73
821,12	1390,57
821,30	1490,92
821,47	1464,30
821,65	1490,92
821,82	1507,30
822,00	1398,76
822,17	1406,95
822,35	1456,11
822,52	1562,60
822,69	1468,39
822,87	1431,53
823,04	1398,76
823,22	1474,54
823,39	1431,53
823,56	1521,64
823,74	1447,91
823,91	1513,45
824,09	1505,26
824,26	1417,19
824,44	1439,72
824,61	1505,26
824,78	1460,20
824,96	1439,72
825,13	1529,83
825,31	1517,54
825,48	1505,26
825,65	1533,93
825,83	1464,30
826,00	1529,83
826,18	1603,56
826,35	1578,98
826,52	1609,70
826,70	1574,89
826,87	1660,90
827,04	1513,45
827,22	1423,34
827,39	1423,34
827,57	1523,69
827,74	1482,73
827,91	1431,53
828,09	1406,95
828,26	1464,30
828,43	1439,72
828,61	1472,49
828,78	1484,78
828,96	1603,56
829,13	1523,69
829,30	1409,00
829,48	1468,39
829,65	1515,50
829,82	1417,19
830,00	1423,34
830,17	1374,19
830,34	1501,16
830,52	1439,72
830,69	1423,34
830,86	1540,07
831,04	1458,15
831,21	1488,87
831,38	1441,77
831,56	1488,87
831,73	1521,64
831,90	1456,11
832,08	1476,59
832,25	1480,68
832,42	1540,07
832,60	1525,74
832,77	1439,72
832,94	1439,72
833,12	1456,11
833,29	1331,18
833,46	1505,26
833,64	1499,11
833,81	1419,24
833,98	1488,87
834,16	1406,95
834,33	1521,64
834,50	1476,59
834,67	1546,22
834,85	1425,39
835,02	1423,34
835,19	1425,39
835,37	1499,11
835,54	1406,95
835,71	1378,28
835,89	1374,19
836,06	1472,49
836,23	1366,00
836,40	1402,86
836,58	1603,56
836,75	1595,37
836,92	1439,72
837,10	1466,35
837,27	1423,34
837,44	1466,35
837,61	1476,59
837,79	1472,49
837,96	1382,38
838,13	1480,68
838,30	1415,15
838,48	1447,91
838,65	1480,68
838,82	1480,68
838,99	1429,48
839,17	1466,35
839,34	1480,68
839,51	1497,07
839,69	1441,77
839,86	1464,30
840,03	1554,41
840,20	1521,64
840,37	1529,83
840,55	1570,79
840,72	1630,18
840,89	1644,52
841,06	1714,15
841,24	1656,81
841,41	1628,14
841,58	1597,42
841,75	1742,82
841,93	1783,78
842,10	1734,63
842,27	1818,60
842,44	1763,30
842,62	1947,62
842,79	1955,81
842,96	1744,87
843,13	1744,87
843,30	1714,15
843,48	1644,52
843,65	1685,48
843,82	1751,01
843,99	1546,22
844,16	1603,56
844,34	1578,98
844,51	1591,27
844,68	1587,18
844,85	1509,35
845,02	1531,88
845,20	1488,87
845,37	1521,64
845,54	1538,02
845,71	1449,96
845,88	1566,70
846,06	1570,79
846,23	1472,49
846,40	1482,73
846,57	1472,49
846,74	1472,49
846,91	1390,57
847,09	1480,68
847,26	1464,30
847,43	1538,02
847,60	1480,68
847,77	1464,30
847,94	1525,74
848,12	1411,05
848,29	1433,58
848,46	1394,67
848,63	1433,58
848,80	1386,47
848,97	1413,10
849,15	1595,37
849,32	1431,53
849,49	1449,96
849,66	1423,34
849,83	1466,35
850,00	1513,45
850,17	1398,76
850,35	1439,72
850,52	1521,64
850,69	1406,95
850,86	1447,91
851,03	1441,77
851,20	1517,54
851,37	1456,11
851,55	1406,95
851,72	1464,30
851,89	1538,02
852,06	1515,50
852,23	1460,20
852,40	1578,98
852,57	1464,30
852,74	1492,97
852,92	1456,11
853,09	1415,15
853,26	1400,81
853,43	1439,72
853,60	1529,83
853,77	1507,30
853,94	1458,15
854,11	1480,68
854,28	1746,92
854,45	1509,35
854,63	1464,30
854,80	1447,91
854,97	1458,15
855,14	1456,11
855,31	1472,49
855,48	1411,05
855,65	1456,11
855,82	1474,54
855,99	1456,11
856,16	1529,83
856,33	1497,07
856,50	1468,39
856,68	1466,35
856,85	1511,40
857,02	1431,53
857,19	1427,43
857,36	1474,54
857,53	1464,30
857,70	1544,17
857,87	1415,15
858,04	1382,38
858,21	1449,96
858,38	1431,53
858,55	1611,75
858,72	1531,88
858,89	1476,59
859,06	1497,07
859,23	1515,50
859,40	1587,18
859,58	1480,68
859,75	1406,95
859,92	1484,78
860,09	1499,11
860,26	1447,91
860,43	1472,49
860,60	1406,95
860,77	1361,90
860,94	1415,15
861,11	1538,02
861,28	1443,82
861,45	1486,83
861,62	1497,07
861,79	1492,97
861,96	1411,05
862,13	1425,39
862,30	1445,87
862,47	1390,57
862,64	1607,66
862,81	1480,68
862,98	1392,62
863,15	1472,49
863,32	1472,49
863,49	1513,45
863,66	1382,38
863,83	1492,97
864,00	1382,38
864,17	1546,22
864,34	1439,72
864,51	1441,77
864,68	1464,30
864,85	1486,83
865,02	1433,58
865,19	1439,72
865,36	1570,79
865,53	1472,49
865,70	1415,15
865,87	1366,00
866,04	1515,50
866,21	1449,96
866,38	1529,83
866,55	1464,30
866,72	1480,68
866,89	1548,26
867,06	1456,11
867,23	1456,11
867,40	1464,30
867,57	1540,07
867,73	1456,11
867,90	1564,65
868,07	1605,61
868,24	1390,57
868,41	1523,69
868,58	1497,07
868,75	1521,64
868,92	1505,26
869,09	1474,54
869,26	1431,53
869,43	1529,83
869,60	1384,43
869,77	1484,78
869,94	1488,87
870,11	1472,49
870,28	1406,95
870,45	1464,30
870,61	1415,15
870,78	1472,49
870,95	1476,59
871,12	1439,72
871,29	1556,46
871,46	1605,61
871,63	1456,11
871,80	1382,38
871,97	1492,97
872,14	1525,74
872,31	1433,58
872,47	1466,35
872,64	1464,30
872,81	1488,87
872,98	1431,53
873,15	1406,95
873,32	1505,26
873,49	1441,77
873,66	1503,21
873,83	1390,57
874,00	1476,59
874,16	1466,35
874,33	1513,45
874,50	1349,61
874,67	1439,72
874,84	1456,11
875,01	1439,72
875,18	1423,34
875,35	1316,84
875,51	1548,26
875,68	1542,12
875,85	1497,07
876,02	1513,45
876,19	1449,96
876,36	1499,11
876,53	1472,49
876,69	1480,68
876,86	1521,64
877,03	1423,34
877,20	1546,22
877,37	1415,15
877,54	1406,95
877,71	1529,83
877,87	1476,59
878,04	1521,64
878,21	1378,28
878,38	1490,92
878,55	1392,62
878,72	1419,24
878,88	1460,20
879,05	1540,07
879,22	1484,78
879,39	1449,96
879,56	1382,38
879,73	1542,12
879,89	1460,20
880,06	1554,41
880,23	1468,39
880,40	1482,73
880,57	1464,30
880,74	1417,19
880,90	1419,24
881,07	1507,30
881,24	1570,79
881,41	1466,35
881,58	1417,19
881,74	1529,83
881,91	1439,72
882,08	1458,15
882,25	1538,02
882,42	1447,91
882,58	1640,42
882,75	1431,53
882,92	1542,12
883,09	1472,49
883,26	1538,02
883,42	1488,87
883,59	1490,92
883,76	1443,82
883,93	1423,34
884,09	1488,87
884,26	1546,22
884,43	1546,22
884,60	1419,24
884,77	1554,41
884,93	1443,82
885,10	1423,34
885,27	1523,69
885,44	1507,30
885,60	1484,78
885,77	1505,26
885,94	1505,26
886,11	1570,79
886,27	1525,74
886,44	1513,45
886,61	1538,02
886,78	1507,30
886,94	1476,59
887,11	1554,41
887,28	1435,63
887,45	1439,72
887,61	1447,91
887,78	1472,49
887,95	1417,19
888,12	1423,34
888,28	1406,95
888,45	1441,77
888,62	1488,87
888,78	1505,26
888,95	1480,68
889,12	1480,68
889,29	1466,35
889,45	1427,43
889,62	1521,64
889,79	1548,26
889,95	1390,57
890,12	1456,11
890,29	1478,63
890,46	1497,07
890,62	1460,20
